#   (GeV)    (pb)
Mass DM1GeV
300  230.825913
350  142.662564
400  99.2772
450  71.095808
500  50.43832
550  35.570286
600  26.435848
650  19.6472704
700  15.38133
750  11.8963518
800  9.2019888
850  7.394698
900  5.8131824
950  4.7036696
1000 3.759
